  0.0000000e+000  1.3502700e-001
  5.0000000e-003  2.1866000e-002
  1.0000000e-002  6.5110000e-002
  1.5000000e-002  7.0054000e-002
  2.0000000e-002  1.2406000e-002
  2.5000000e-002  3.9658000e-002
  3.0000000e-002  1.6075400e-001
  3.5000000e-002  1.4897400e-001
  4.0000000e-002  1.1302400e-001
  4.5000000e-002  2.9341600e-001
  5.0000000e-002  4.0776700e-001
  5.5000000e-002  4.0257900e-001
  6.0000000e-002  3.9659700e-001
  6.5000000e-002  5.6789500e-001
  7.0000000e-002  5.1262700e-001
  7.5000000e-002  3.8249800e-001
  8.0000000e-002  9.9718000e-002
  8.5000000e-002 -1.2962500e-001
  9.0000000e-002  1.5793000e-002
  9.5000000e-002  2.1654100e-001
  1.0000000e-001  2.8813600e-001
  1.0500000e-001  1.7033600e-001
  1.1000000e-001  2.5066000e-001
  1.1500000e-001  2.0875900e-001
  1.2000000e-001  1.4595200e-001
  1.2500000e-001  1.9661200e-001
  1.3000000e-001  2.2700800e-001
  1.3500000e-001  2.2136300e-001
  1.4000000e-001  1.6670500e-001
  1.4500000e-001  2.5487100e-001
  1.5000000e-001  3.1828800e-001
  1.5500000e-001  2.5383400e-001
  1.6000000e-001  2.0521900e-001
  1.6500000e-001  2.8615200e-001
  1.7000000e-001  1.6890200e-001
  1.7500000e-001  2.8001800e-001
  1.8000000e-001  2.2893100e-001
  1.8500000e-001  1.3127300e-001
  1.9000000e-001  2.4922600e-001
  1.9500000e-001  3.4358700e-001
  2.0000000e-001  2.8001800e-001
  2.0500000e-001  1.6017400e-001
  2.1000000e-001  1.8626700e-001
  2.1500000e-001  4.0029000e-001
  2.2000000e-001  2.4361000e-001
  2.2500000e-001  3.9629200e-001
  2.3000000e-001  4.0218200e-001
  2.3500000e-001  2.6051700e-001
  2.4000000e-001  2.3427200e-001
  2.4500000e-001  4.4448000e-001
  2.5000000e-001  3.2542900e-001
  2.5500000e-001  2.3228800e-001
  2.6000000e-001  4.3666700e-001
  2.6500000e-001  3.7630300e-001
  2.7000000e-001  3.9076800e-001
  2.7500000e-001  2.7672200e-001
  2.8000000e-001  4.7231200e-001
  2.8500000e-001  2.1391600e-001
  2.9000000e-001  2.4940900e-001
  2.9500000e-001  2.8090300e-001
  3.0000000e-001  1.8257400e-001
  3.0500000e-001  1.8965400e-001
  3.1000000e-001  2.0338700e-001
  3.1500000e-001  2.1806700e-001
  3.2000000e-001  1.7308300e-001
  3.2500000e-001  1.2944200e-001
  3.3000000e-001  1.1021600e-001
  3.3500000e-001  8.0766000e-002
  3.4000000e-001  8.8273000e-002
  3.4500000e-001  1.8004100e-001
  3.5000000e-001  9.1813000e-002
  3.5500000e-001  1.2970000e-003
  3.6000000e-001  8.6198000e-002
  3.6500000e-001  1.0350200e-001
  3.7000000e-001  4.7410000e-002
  3.7500000e-001  5.1896000e-002
  3.8000000e-001  1.0414300e-001
  3.8500000e-001  2.5480000e-003
  3.9000000e-001  5.5690000e-003
  3.9500000e-001  5.4246000e-002
  4.0000000e-001  6.1692000e-002
  4.0500000e-001  6.0075000e-002
  4.1000000e-001  6.4988000e-002
  4.1500000e-001  1.0154900e-001
  4.2000000e-001 -2.3606000e-002
  4.2500000e-001  6.3554000e-002
  4.3000000e-001  6.4774000e-002
  4.3500000e-001  1.3704100e-001
  4.4000000e-001  1.0911700e-001
  4.4500000e-001  1.2632900e-001
  4.5000000e-001  1.0353200e-001
  4.5500000e-001  7.1427000e-002
  4.6000000e-001  1.6520900e-001
  4.6500000e-001  1.1296200e-001
  4.7000000e-001  4.4297000e-002
  4.7500000e-001  1.0634000e-001
  4.8000000e-001  1.5925800e-001
  4.8500000e-001  1.1744900e-001
  4.9000000e-001  7.3472000e-002
  4.9500000e-001  1.4677600e-001
  5.0000000e-001  1.3215800e-001
  5.0500000e-001  7.1427000e-002
  5.1000000e-001  1.8031600e-001
  5.1500000e-001  1.5492500e-001
  5.2000000e-001  9.1325000e-002
  5.2500000e-001  1.1549500e-001
  5.3000000e-001  1.5971600e-001
  5.3500000e-001  1.2297200e-001
  5.4000000e-001  1.4833300e-001
  5.4500000e-001  1.4705100e-001
  5.5000000e-001  1.4869900e-001
  5.5500000e-001  8.8670000e-002
  5.6000000e-001  1.2492600e-001
  5.6500000e-001  1.3438600e-001
  5.7000000e-001  1.0579100e-001
  5.7500000e-001  1.0975800e-001
  5.8000000e-001  1.5556600e-001
  5.8500000e-001  8.5985000e-002
  5.9000000e-001  7.9240000e-002
  5.9500000e-001  1.6572800e-001
  6.0000000e-001  1.5602300e-001
  6.0500000e-001  8.5344000e-002
  6.1000000e-001  1.5977700e-001
  6.1500000e-001  2.1406900e-001
  6.2000000e-001  1.4860800e-001
  6.2500000e-001  2.0268600e-001
  6.3000000e-001  2.6375200e-001
  6.3500000e-001  1.5608400e-001
  6.4000000e-001  1.1796700e-001
  6.4500000e-001  1.8779300e-001
  6.5000000e-001  1.4036800e-001
  6.5500000e-001  9.6025000e-002
  6.6000000e-001  1.3252500e-001
  6.6500000e-001  1.5050000e-001
  6.7000000e-001  7.0329000e-002
  6.7500000e-001  1.6231000e-001
  6.8000000e-001  2.2685600e-001
  6.8500000e-001  1.4976700e-001
  6.9000000e-001  1.1305400e-001
  6.9500000e-001  1.6890200e-001
  7.0000000e-001  1.7387600e-001
  7.0500000e-001  2.3634700e-001
  7.1000000e-001  3.6690300e-001
  7.1500000e-001  4.7280100e-001
  7.2000000e-001  4.5439800e-001
  7.2500000e-001  5.2904600e-001
  7.3000000e-001  6.1400800e-001
  7.3500000e-001  4.2803100e-001
  7.4000000e-001  2.5694700e-001
  7.4500000e-001  8.4581000e-002
  7.5000000e-001  3.0075000e-002
  7.5500000e-001  6.9139000e-002
  7.6000000e-001  1.4348000e-001
  7.6500000e-001  2.0027500e-001
  7.7000000e-001  9.9718000e-002
  7.7500000e-001  1.7277800e-001
  7.8000000e-001  2.1400800e-001
  7.8500000e-001  1.7836300e-001
  7.9000000e-001  1.3875000e-001
  7.9500000e-001  2.1452700e-001
  8.0000000e-001  1.9749700e-001
  8.0500000e-001  1.6285900e-001
  8.1000000e-001  2.2923600e-001
  8.1500000e-001  1.9673400e-001
  8.2000000e-001  1.3521000e-001
  8.2500000e-001  2.1376400e-001
  8.3000000e-001  2.9225600e-001
  8.3500000e-001  1.9765000e-001
  8.4000000e-001  2.1565600e-001
  8.4500000e-001  2.3070100e-001
  8.5000000e-001  2.6314200e-001
  8.5500000e-001  2.3665200e-001
  8.6000000e-001  2.6228700e-001
  8.6500000e-001  3.1380200e-001
  8.7000000e-001  1.3862800e-001
  8.7500000e-001  2.8236800e-001
  8.8000000e-001  3.6839800e-001
  8.8500000e-001  2.3616400e-001
  8.9000000e-001  3.1465600e-001
  8.9500000e-001  3.3763600e-001
  9.0000000e-001  3.0223500e-001
  9.0500000e-001  3.0824700e-001
  9.1000000e-001  3.7178600e-001
  9.1500000e-001  3.6247800e-001
  9.2000000e-001  3.1722000e-001
  9.2500000e-001  3.6357700e-001
  9.3000000e-001  3.6314900e-001
  9.3500000e-001  3.3775800e-001
  9.4000000e-001  3.4062700e-001
  9.4500000e-001  3.8847900e-001
  9.5000000e-001  3.6769700e-001
  9.5500000e-001  3.1279500e-001
  9.6000000e-001  3.7859200e-001
  9.6500000e-001  3.3025100e-001
  9.7000000e-001  2.6356900e-001
  9.7500000e-001  2.3884900e-001
  9.8000000e-001  3.0864400e-001
  9.8500000e-001  2.4510600e-001
  9.9000000e-001  1.8464900e-001
  9.9500000e-001  2.3402800e-001
  1.0000000e+000  2.1248200e-001
  1.0050000e+000  1.7467000e-001
  1.0100000e+000  2.0561500e-001
  1.0150000e+000  2.0116000e-001
  1.0200000e+000  1.4134400e-001
  1.0250000e+000  1.7790500e-001
  1.0300000e+000  2.3210500e-001
  1.0350000e+000  1.2410200e-001
  1.0400000e+000  1.1293200e-001
  1.0450000e+000  2.2352900e-001
  1.0500000e+000  1.5300200e-001
  1.0550000e+000  1.3572900e-001
  1.0600000e+000  2.1507600e-001
  1.0650000e+000  1.7064200e-001
  1.0700000e+000  1.0014500e-001
  1.0750000e+000  1.6630800e-001
  1.0800000e+000  2.2114900e-001
  1.0850000e+000  1.2834400e-001
  1.0900000e+000  1.3752900e-001
  1.0950000e+000  1.8095700e-001
  1.1000000e+000  1.7631800e-001
  1.1050000e+000  1.3170100e-001
  1.1100000e+000  1.7433400e-001
  1.1150000e+000  1.6325600e-001
  1.1200000e+000  7.0420000e-002
  1.1250000e+000  1.4360300e-001
  1.1300000e+000  2.3091500e-001
  1.1350000e+000  1.6392800e-001
  1.1400000e+000  1.0753000e-001
  1.1450000e+000  2.2969400e-001
  1.1500000e+000  1.5300200e-001
  1.1550000e+000  1.1967600e-001
  1.1600000e+000  1.2251500e-001
  1.1650000e+000  2.1174900e-001
  1.1700000e+000  1.5114100e-001
  1.1750000e+000  1.4549500e-001
  1.1800000e+000  2.1098600e-001
  1.1850000e+000  1.4033700e-001
  1.1900000e+000  1.2297200e-001
  1.1950000e+000  1.9911500e-001
  1.2000000e+000  1.6322600e-001
  1.2050000e+000  1.0396000e-001
  1.2100000e+000  1.3887200e-001
  1.2150000e+000  1.9072200e-001
  1.2200000e+000  9.5476000e-002
  1.2250000e+000  1.1674700e-001
  1.2300000e+000  1.7683700e-001
  1.2350000e+000  7.8904000e-002
  1.2400000e+000  1.3432500e-001
  1.2450000e+000  1.9893200e-001
  1.2500000e+000  1.3643100e-001
  1.2550000e+000  1.0182300e-001
  1.2600000e+000  1.7067200e-001
  1.2650000e+000  1.9124100e-001
  1.2700000e+000  1.4305300e-001
  1.2750000e+000  1.8901300e-001
  1.2800000e+000  1.6392800e-001
  1.2850000e+000  9.2332000e-002
  1.2900000e+000  1.1863900e-001
  1.2950000e+000  1.4906500e-001
  1.3000000e+000  1.5626800e-001
  1.3050000e+000  1.0417300e-001
  1.3100000e+000  1.9121100e-001
  1.3150000e+000  1.4061200e-001
  1.3200000e+000  7.2587000e-002
  1.3250000e+000  1.4140500e-001
  1.3300000e+000  1.4491500e-001
  1.3350000e+000  1.1299300e-001
  1.3400000e+000  1.0255600e-001
  1.3450000e+000  1.8916600e-001
  1.3500000e+000  1.7280800e-001
  1.3550000e+000  2.0662200e-001
  1.3600000e+000  3.6339400e-001
  1.3650000e+000  4.9669600e-001
  1.3700000e+000  4.7039000e-001
  1.3750000e+000  4.8842600e-001
  1.3800000e+000  4.2339200e-001
  1.3850000e+000  2.6579700e-001
  1.3900000e+000 -3.4897000e-002
  1.3950000e+000 -5.2964000e-002
  1.4000000e+000  2.4887000e-002
  1.4050000e+000  1.7777000e-002
  1.4100000e+000  1.6313400e-001
  1.4150000e+000  1.6649100e-001
  1.4200000e+000  1.1281000e-001
  1.4250000e+000  1.2361300e-001
  1.4300000e+000  1.5516900e-001
  1.4350000e+000  1.2944200e-001
  1.4400000e+000  1.4406000e-001
  1.4450000e+000  2.1858500e-001
  1.4500000e+000  1.8098700e-001
  1.4550000e+000  1.0844600e-001
  1.4600000e+000  1.9642900e-001
  1.4650000e+000  1.7180100e-001
  1.4700000e+000  1.4558600e-001
  1.4750000e+000  1.8059000e-001
  1.4800000e+000  2.2240000e-001
  1.4850000e+000  1.8239100e-001
  1.4900000e+000  1.6319500e-001
  1.4950000e+000  2.6567500e-001
  1.5000000e+000  1.6884100e-001
  1.5050000e+000  1.3765200e-001
  1.5100000e+000  2.2362100e-001
  1.5150000e+000  2.9341600e-001
  1.5200000e+000  1.8999000e-001
  1.5250000e+000  2.1391600e-001
  1.5300000e+000  2.8963100e-001
  1.5350000e+000  2.6955100e-001
  1.5400000e+000  2.2420100e-001
  1.5450000e+000  3.2033300e-001
  1.5500000e+000  2.9304900e-001
  1.5550000e+000  2.6628500e-001
  1.5600000e+000  3.3464600e-001
  1.5650000e+000  3.3995600e-001
  1.5700000e+000  2.6250100e-001
  1.5750000e+000  3.3778900e-001
  1.5800000e+000  3.7026000e-001
  1.5850000e+000  3.0785100e-001
  1.5900000e+000  3.0406600e-001
  1.5950000e+000  3.3876500e-001
  1.6000000e+000  3.1166500e-001
  1.6050000e+000  2.4489200e-001
  1.6100000e+000  3.5832800e-001
  1.6150000e+000  3.1548000e-001
  1.6200000e+000  2.2563500e-001
  1.6250000e+000  2.5935800e-001
  1.6300000e+000  2.7177800e-001
  1.6350000e+000  1.6826100e-001
  1.6400000e+000  1.0017500e-001
  1.6450000e+000  2.4168800e-001
  1.6500000e+000  1.4439600e-001
  1.6550000e+000  1.1024600e-001
  1.6600000e+000  1.7799600e-001
  1.6650000e+000  1.4848500e-001
  1.6700000e+000  7.9698000e-002
  1.6750000e+000  1.3640000e-001
  1.6800000e+000  1.5989900e-001
  1.6850000e+000  1.0276900e-001
  1.6900000e+000  9.5506000e-002
  1.6950000e+000  1.3142600e-001
  1.7000000e+000  1.4473200e-001
  1.7050000e+000  8.5618000e-002
  1.7100000e+000  1.8065100e-001
  1.7150000e+000  1.2791600e-001
  1.7200000e+000  7.6310000e-002
  1.7250000e+000  1.1708200e-001
  1.7300000e+000  1.7793500e-001
  1.7350000e+000  7.0451000e-002
  1.7400000e+000  9.2454000e-002
  1.7450000e+000  1.7756900e-001
  1.7500000e+000  7.7806000e-002
  1.7550000e+000  1.2086700e-001
  1.7600000e+000  1.5321600e-001
  1.7650000e+000  1.5001100e-001
  1.7700000e+000  9.5842000e-002
  1.7750000e+000  1.3994000e-001
  1.7800000e+000  1.7698900e-001
  1.7850000e+000  1.1223000e-001
  1.7900000e+000  8.4916000e-002
  1.7950000e+000  1.8956300e-001
  1.8000000e+000  1.4454900e-001
  1.8050000e+000  8.2139000e-002
  1.8100000e+000  1.8611400e-001
  1.8150000e+000  1.3139500e-001
  1.8200000e+000  7.6585000e-002
  1.8250000e+000  1.3090700e-001
  1.8300000e+000  1.7875900e-001
  1.8350000e+000  9.5384000e-002
  1.8400000e+000  9.4652000e-002
  1.8450000e+000  1.8275700e-001
  1.8500000e+000  8.5893000e-002
  1.8550000e+000  8.0278000e-002
  1.8600000e+000  1.3774300e-001
  1.8650000e+000  1.3038800e-001
  1.8700000e+000  6.7155000e-002
  1.8750000e+000  1.1342000e-001
  1.8800000e+000  1.1848600e-001
  1.8850000e+000  7.3167000e-002
  1.8900000e+000  1.0099900e-001
  1.8950000e+000  1.4647100e-001
  1.9000000e+000  1.0072500e-001
  1.9050000e+000  7.0603000e-002
  1.9100000e+000  1.6490400e-001
  1.9150000e+000  1.8608400e-001
  1.9200000e+000  1.0988000e-001
  1.9250000e+000  1.3618700e-001
  1.9300000e+000  1.6606400e-001
  1.9350000e+000  6.6453000e-002
  1.9400000e+000  1.0545500e-001
  1.9450000e+000  1.2172100e-001
  1.9500000e+000  1.3106000e-001
  1.9550000e+000  4.9699000e-002
  1.9600000e+000  1.2257600e-001
  1.9650000e+000  1.5123200e-001
  1.9700000e+000  6.8803000e-002
  1.9750000e+000  1.2431500e-001
  1.9800000e+000  1.6911600e-001
  1.9850000e+000  5.1835000e-002
  1.9900000e+000  4.3534000e-002
  1.9950000e+000  1.6237100e-001
  2.0000000e+000  1.9765000e-001
  2.0050000e+000  3.0614200e-001
  2.0100000e+000  4.3032000e-001
  2.0150000e+000  4.7722600e-001
  2.0200000e+000  4.4448000e-001
  2.0250000e+000  3.5005700e-001
  2.0300000e+000  3.3391300e-001
  2.0350000e+000  8.9260000e-003
  2.0400000e+000 -1.0530300e-001
  2.0450000e+000  4.5365000e-002
  2.0500000e+000  3.7156000e-002
  2.0550000e+000  4.5823000e-002
  2.0600000e+000  1.3060200e-001
  2.0650000e+000  1.3173100e-001
  2.0700000e+000  6.7887000e-002
  2.0750000e+000  1.2831300e-001
  2.0800000e+000  1.6023500e-001
  2.0850000e+000  9.2241000e-002
  2.0900000e+000  1.3237200e-001
  2.0950000e+000  1.3557600e-001
  2.1000000e+000  1.3078500e-001
  2.1050000e+000  1.1882200e-001
  2.1100000e+000  2.0024400e-001
  2.1150000e+000  1.8605300e-001
  2.1200000e+000  9.7307000e-002
  2.1250000e+000  1.3389800e-001
  2.1300000e+000  2.1736500e-001
  2.1350000e+000  1.4140500e-001
  2.1400000e+000  1.2602400e-001
  2.1450000e+000  2.3558400e-001
  2.1500000e+000  1.7619600e-001
  2.1550000e+000  1.5202600e-001
  2.1600000e+000  2.5127000e-001
  2.1650000e+000  2.0741600e-001
  2.1700000e+000  1.4805800e-001
  2.1750000e+000  1.9002100e-001
  2.1800000e+000  3.2668000e-001
  2.1850000e+000  2.1602200e-001
  2.1900000e+000  2.0839200e-001
  2.1950000e+000  2.8310100e-001
  2.2000000e+000  2.2472000e-001
  2.2050000e+000  2.5249100e-001
  2.2100000e+000  3.2188900e-001
  2.2150000e+000  2.9341600e-001
  2.2200000e+000  2.5835000e-001
  2.2250000e+000  3.0196100e-001
  2.2300000e+000  3.1651800e-001
  2.2350000e+000  3.0415800e-001
  2.2400000e+000  2.5896100e-001
  2.2450000e+000  3.2265200e-001
  2.2500000e+000  2.7214500e-001
  2.2550000e+000  1.7375400e-001
  2.2600000e+000  2.7995700e-001
  2.2650000e+000  2.4843200e-001
  2.2700000e+000  1.5269700e-001
  2.2750000e+000  2.0817900e-001
  2.2800000e+000  2.0640900e-001
  2.2850000e+000  1.2098900e-001
  2.2900000e+000  1.4833300e-001
  2.2950000e+000  1.6304300e-001
  2.3000000e+000  1.1354200e-001
  2.3050000e+000  8.1285000e-002
  2.3100000e+000  8.9158000e-002
  2.3150000e+000  1.3325700e-001
  2.3200000e+000  5.3422000e-002
  2.3250000e+000  1.1830300e-001
  2.3300000e+000  1.6478200e-001
  2.3350000e+000  4.4968000e-002
  2.3400000e+000  6.4378000e-002
  2.3450000e+000  1.2645100e-001
  2.3500000e+000  8.0064000e-002
  2.3550000e+000  5.8335000e-002
  2.3600000e+000  1.4049000e-001
  2.3650000e+000  1.0356300e-001
  2.3700000e+000  6.5080000e-002
  2.3750000e+000  1.0896500e-001
  2.3800000e+000  1.2306400e-001
  2.3850000e+000  5.5772000e-002
  2.3900000e+000  9.0928000e-002
  2.3950000e+000  1.5101800e-001
  2.4000000e+000  5.7999000e-002
  2.4050000e+000  4.5365000e-002
  2.4100000e+000  1.4454900e-001
  2.4150000e+000  1.4406000e-001
  2.4200000e+000  7.7836000e-002
  2.4250000e+000  1.0740800e-001
  2.4300000e+000  1.5272700e-001
  2.4350000e+000  6.4378000e-002
  2.4400000e+000  7.6463000e-002
  2.4450000e+000  1.3997100e-001
  2.4500000e+000  1.0695000e-001
  2.4550000e+000  8.9555000e-002
  2.4600000e+000  1.4634900e-001
  2.4650000e+000  1.4772300e-001
  2.4700000e+000  5.3361000e-002
  2.4750000e+000  1.0753000e-001
  2.4800000e+000  1.3316500e-001
  2.4850000e+000  5.6474000e-002
  2.4900000e+000  9.7917000e-002
  2.4950000e+000  1.6798700e-001
  2.5000000e+000  6.1204000e-002
  2.5050000e+000  7.9210000e-002
  2.5100000e+000  1.0688900e-001
  2.5150000e+000  1.3164000e-001
  2.5200000e+000 -7.6140000e-003
  2.5250000e+000  8.7022000e-002
  2.5300000e+000  1.1372500e-001
  2.5350000e+000  9.5140000e-002
  2.5400000e+000  6.5080000e-002
  2.5450000e+000  1.5462000e-001
  2.5500000e+000  9.1478000e-002
  2.5550000e+000  5.0828000e-002
  2.5600000e+000  1.6545300e-001
  2.5650000e+000  1.5254400e-001
  2.5700000e+000  1.1781500e-001
  2.5750000e+000  1.4293100e-001
  2.5800000e+000  1.3752900e-001
  2.5850000e+000  6.9566000e-002
  2.5900000e+000  5.7755000e-002
  2.5950000e+000  1.5254400e-001
  2.6000000e+000  7.2953000e-002
  2.6050000e+000  4.9210000e-002
  2.6100000e+000  1.2272800e-001
  2.6150000e+000  9.8985000e-002
  2.6200000e+000  4.5090000e-002
  2.6250000e+000  9.2851000e-002
  2.6300000e+000  1.5718300e-001
  2.6350000e+000  8.2963000e-002
  2.6400000e+000  6.4774000e-002
  2.6450000e+000  1.3395900e-001
  2.6500000e+000  1.9551400e-001
  2.6550000e+000  2.1559500e-001
  2.6600000e+000  3.4789000e-001
  2.6650000e+000  4.9065400e-001
  2.6700000e+000  4.5272000e-001
  2.6750000e+000  4.9843600e-001
  2.6800000e+000  4.0596600e-001
  2.6850000e+000  1.6191300e-001
  2.6900000e+000  1.2192000e-002
  2.6950000e+000 -9.0490000e-003
  2.7000000e+000  1.2131000e-002
  2.7050000e+000 -1.6404000e-002
  2.7100000e+000  1.6682700e-001
  2.7150000e+000  1.3994000e-001
  2.7200000e+000  6.9657000e-002
  2.7250000e+000  1.2803800e-001
  2.7300000e+000  1.3643100e-001
  2.7350000e+000  5.0828000e-002
  2.7400000e+000  9.0288000e-002
  2.7450000e+000  2.1757800e-001
  2.7500000e+000  1.4717300e-001
  2.7550000e+000  8.8121000e-002
  2.7600000e+000  1.8474100e-001
  2.7650000e+000  1.7198400e-001
  2.7700000e+000  6.4500000e-002
  2.7750000e+000  1.3389800e-001
  2.7800000e+000  2.2331600e-001
  2.7850000e+000  1.4763100e-001
  2.7900000e+000  1.5568800e-001
  2.7950000e+000  1.7204500e-001
  2.8000000e+000  1.8489300e-001
  2.8050000e+000  1.5727500e-001
  2.8100000e+000  2.1391600e-001
  2.8150000e+000  1.7888100e-001
  2.8200000e+000  1.9057000e-001
  2.8250000e+000  1.8532100e-001
  2.8300000e+000  2.7406700e-001
  2.8350000e+000  1.8699900e-001
  2.8400000e+000  2.1815800e-001
  2.8450000e+000  2.8658000e-001
  2.8500000e+000  2.0573700e-001
  2.8550000e+000  2.2041700e-001
  2.8600000e+000  3.0833900e-001
  2.8650000e+000  2.9961100e-001
  2.8700000e+000  2.5670200e-001
  2.8750000e+000  3.3351600e-001
  2.8800000e+000  3.2005800e-001
  2.8850000e+000  2.1391600e-001
  2.8900000e+000  2.7162600e-001
  2.8950000e+000  3.4636400e-001
  2.9000000e+000  2.6765800e-001
  2.9050000e+000  2.2694700e-001
  2.9100000e+000  2.6656000e-001
  2.9150000e+000  2.2331600e-001
  2.9200000e+000  1.6658300e-001
  2.9250000e+000  2.1321400e-001
  2.9300000e+000  2.1492300e-001
  2.9350000e+000  1.4900400e-001
  2.9400000e+000  1.4570800e-001
  2.9450000e+000  1.8764000e-001
  2.9500000e+000  1.1747900e-001
  2.9550000e+000  7.4296000e-002
  2.9600000e+000  1.4232100e-001
  2.9650000e+000  1.1683800e-001
  2.9700000e+000  6.2150000e-002
  2.9750000e+000  1.0161000e-001
  2.9800000e+000  1.4842400e-001
  2.9850000e+000  8.9464000e-002
  2.9900000e+000  8.3238000e-002
  2.9950000e+000  1.1882200e-001
  3.0000000e+000  1.1512900e-001
  3.0050000e+000  5.8946000e-002
  3.0100000e+000  1.3176200e-001
  3.0150000e+000  8.3635000e-002
  3.0200000e+000  1.5854000e-002
  3.0250000e+000  1.3951300e-001
  3.0300000e+000  1.3328700e-001
  3.0350000e+000  7.4815000e-002
  3.0400000e+000  6.7735000e-002
  3.0450000e+000  1.4747800e-001
  3.0500000e+000  6.4500000e-002
  3.0550000e+000  7.5425000e-002
  3.0600000e+000  1.4738700e-001
  3.0650000e+000  8.6747000e-002
  3.0700000e+000  2.7207000e-002
  3.0750000e+000  1.1512900e-001
  3.0800000e+000  1.4821100e-001
  3.0850000e+000  8.1529000e-002
  3.0900000e+000  9.3187000e-002
  3.0950000e+000  1.5434500e-001
  3.1000000e+000  8.6503000e-002
  3.1050000e+000  6.3096000e-002
  3.1100000e+000  1.4747800e-001
  3.1150000e+000  1.1665500e-001
  3.1200000e+000  4.3900000e-002
  3.1250000e+000  1.1348100e-001
  3.1300000e+000  1.3609500e-001
  3.1350000e+000  1.0621800e-001
  3.1400000e+000  1.0130500e-001
  3.1450000e+000  1.3148700e-001
  3.1500000e+000  1.0676700e-001
  3.1550000e+000  5.5070000e-002
  3.1600000e+000  1.3380600e-001
  3.1650000e+000  1.1165000e-001
  3.1700000e+000  8.5910000e-003
  3.1750000e+000  5.0462000e-002
  3.1800000e+000  1.1628900e-001
  3.1850000e+000  5.3300000e-002
  3.1900000e+000  4.0940000e-002
  3.1950000e+000  1.1683800e-001
  3.2000000e+000  6.1662000e-002
  3.2050000e+000  5.7175000e-002
  3.2100000e+000  1.2324700e-001
  3.2150000e+000  1.1787600e-001
  3.2200000e+000  5.8793000e-002
  3.2250000e+000  1.2489500e-001
  3.2300000e+000  1.1143700e-001
  3.2350000e+000  8.2994000e-002
  3.2400000e+000  6.7918000e-002
  3.2450000e+000  1.5596200e-001
  3.2500000e+000  7.5669000e-002
  3.2550000e+000  3.9872000e-002
  3.2600000e+000  6.5660000e-002
  3.2650000e+000  8.4672000e-002
  3.2700000e+000  7.0695000e-002
  3.2750000e+000  1.1702100e-001
  3.2800000e+000  1.1656400e-001
  3.2850000e+000  6.2943000e-002
  3.2900000e+000  5.9647000e-002
  3.2950000e+000  1.1046000e-001
  3.3000000e+000  4.8875000e-002
  3.3050000e+000  9.7368000e-002
  3.3100000e+000  2.3131100e-001
  3.3150000e+000  3.2582600e-001
  3.3200000e+000  3.3135000e-001
  3.3250000e+000  4.6395000e-001
  3.3300000e+000  5.4790600e-001
  3.3350000e+000  3.5783900e-001
  3.3400000e+000  2.3875800e-001
  3.3450000e+000  1.0325800e-001
  3.3500000e+000 -1.2398000e-001
  3.3550000e+000 -2.5650000e-002
  3.3600000e+000  6.6422000e-002
  3.3650000e+000  1.1622800e-001
  3.3700000e+000  1.6434000e-002
  3.3750000e+000  6.9535000e-002
  3.3800000e+000  1.3127300e-001
  3.3850000e+000  4.8966000e-002
  3.3900000e+000  8.3970000e-002
  3.3950000e+000  1.3777400e-001
  3.4000000e+000  1.0789600e-001
  3.4050000e+000  8.6198000e-002
  3.4100000e+000  1.4296200e-001
  3.4150000e+000  1.5190300e-001
  3.4200000e+000  6.3493000e-002
  3.4250000e+000  1.2419300e-001
  3.4300000e+000  1.5465000e-001
  3.4350000e+000  1.0280000e-001
  3.4400000e+000  1.1216900e-001
  3.4450000e+000  1.7564700e-001
  3.4500000e+000  1.3551500e-001
  3.4550000e+000  6.3950000e-002
  3.4600000e+000  2.1400800e-001
  3.4650000e+000  1.8129200e-001
  3.4700000e+000  1.1369500e-001
  3.4750000e+000  2.0192300e-001
  3.4800000e+000  1.9972500e-001
  3.4850000e+000  1.7341900e-001
  3.4900000e+000  1.9600200e-001
  3.4950000e+000  1.8974600e-001
  3.5000000e+000  2.0039700e-001
  3.5050000e+000  2.0622600e-001
  3.5100000e+000  2.9973300e-001
  3.5150000e+000  2.5233800e-001
  3.5200000e+000  2.1110900e-001
  3.5250000e+000  2.8709800e-001
  3.5300000e+000  2.8944800e-001
  3.5350000e+000  2.6039500e-001
  3.5400000e+000  2.8175800e-001
  3.5450000e+000  2.7721100e-001
  3.5500000e+000  2.6512500e-001
  3.5550000e+000  2.2658100e-001
  3.5600000e+000  2.7916400e-001
  3.5650000e+000  2.3173900e-001
  3.5700000e+000  1.6029600e-001
  3.5750000e+000  2.2227800e-001
  3.5800000e+000  2.3979500e-001
  3.5850000e+000  1.1171100e-001
  3.5900000e+000  1.3060200e-001
  3.5950000e+000  1.9789400e-001
  3.6000000e+000  6.9902000e-002
  3.6050000e+000  7.1488000e-002
  3.6100000e+000  1.4784500e-001
  3.6150000e+000  1.4985900e-001
  3.6200000e+000  3.8071000e-002
  3.6250000e+000  1.0911700e-001
  3.6300000e+000  1.2105000e-001
  3.6350000e+000  5.9892000e-002
  3.6400000e+000  1.2501700e-001
  3.6450000e+000  1.2614600e-001
  3.6500000e+000  7.3350000e-002
  3.6550000e+000  4.5334000e-002
  3.6600000e+000  1.3234100e-001
  3.6650000e+000  1.3908600e-001
  3.6700000e+000  1.0208000e-002
  3.6750000e+000  1.1146700e-001
  3.6800000e+000  1.0536300e-001
  3.6850000e+000  7.2190000e-002
  3.6900000e+000  9.2637000e-002
  3.6950000e+000  1.2642100e-001
  3.7000000e+000  6.0502000e-002
  3.7050000e+000  5.9892000e-002
  3.7100000e+000  1.1235200e-001
  3.7150000e+000  1.1149800e-001
  3.7200000e+000  3.4470000e-002
  3.7250000e+000  8.0186000e-002
  3.7300000e+000  1.1049100e-001
  3.7350000e+000  3.5996000e-002
  3.7400000e+000  7.6768000e-002
  3.7450000e+000  1.5379600e-001
  3.7500000e+000  6.9932000e-002
  3.7550000e+000  7.4784000e-002
  3.7600000e+000  1.5260500e-001
  3.7650000e+000  7.0054000e-002
  3.7700000e+000  6.2425000e-002
  3.7750000e+000  1.1766200e-001
  3.7800000e+000  1.1696000e-001
  3.7850000e+000  5.6077000e-002
  3.7900000e+000  5.5070000e-002
  3.7950000e+000  1.7256400e-001
  3.8000000e+000  5.0431000e-002
  3.8050000e+000  8.7388000e-002
  3.8100000e+000  1.3112100e-001
  3.8150000e+000  1.2855700e-001
  3.8200000e+000  2.7237000e-002
  3.8250000e+000  9.4255000e-002
  3.8300000e+000  1.3246300e-001
  3.8350000e+000  3.8743000e-002
  3.8400000e+000  5.7786000e-002
  3.8450000e+000  1.4961500e-001
  3.8500000e+000  5.2109000e-002
  3.8550000e+000  1.4267000e-002
  3.8600000e+000  1.0951400e-001
  3.8650000e+000  1.1100900e-001
  3.8700000e+000  4.6708000e-002
  3.8750000e+000  8.8853000e-002
  3.8800000e+000  8.5344000e-002
  3.8850000e+000  9.0959000e-002
  3.8900000e+000  1.2355200e-001
  3.8950000e+000  1.7113000e-001
  3.9000000e+000  9.1295000e-002
  3.9050000e+000  4.6403000e-002
  3.9100000e+000  1.0124400e-001
  3.9150000e+000  8.8701000e-002
  3.9200000e+000 -1.3687000e-002
  3.9250000e+000  1.3676700e-001
  3.9300000e+000  1.2575000e-001
  3.9350000e+000  3.7583000e-002
  3.9400000e+000  3.4989000e-002
  3.9450000e+000  1.1055200e-001
  3.9500000e+000  4.0421000e-002
  3.9550000e+000  6.6606000e-002
  3.9600000e+000  1.1650300e-001
  3.9650000e+000  1.0399000e-001
  3.9700000e+000  5.2323000e-002
  3.9750000e+000  1.3722400e-001
  3.9800000e+000  2.7852300e-001
  3.9850000e+000  3.4618100e-001
  3.9900000e+000  4.2272100e-001
  3.9950000e+000  4.9999200e-001
  4.0000000e+000  4.7161100e-001
  4.0050000e+000  3.2848100e-001
  4.0100000e+000  1.9853500e-001
  4.0150000e+000 -3.0625000e-002
  4.0200000e+000 -9.3370000e-002
  4.0250000e+000  5.1652000e-002
  4.0300000e+000  8.9647000e-002
  4.0350000e+000 -1.5396000e-002
  4.0400000e+000  7.0298000e-002
  4.0450000e+000  1.4125300e-001
  4.0500000e+000  8.1559000e-002
  4.0550000e+000  2.9953000e-002
  4.0600000e+000  1.3749900e-001
  4.0650000e+000  1.0124400e-001
  4.0700000e+000  6.2455000e-002
  4.0750000e+000  8.2170000e-002
  4.0800000e+000  9.0471000e-002
  4.0850000e+000  6.7552000e-002
  4.0900000e+000  1.2877100e-001
  4.0950000e+000  1.7555500e-001
  4.1000000e+000  9.5293000e-002
  4.1050000e+000  6.6148000e-002
  4.1100000e+000  1.4399900e-001
  4.1150000e+000  1.3429500e-001
  4.1200000e+000  7.1000000e-002
  4.1250000e+000  1.8516800e-001
  4.1300000e+000  1.6606400e-001
  4.1350000e+000  1.0777400e-001
  4.1400000e+000  1.1116200e-001
  4.1450000e+000  1.6270700e-001
  4.1500000e+000  1.7097700e-001
  4.1550000e+000  1.3054100e-001
  4.1600000e+000  1.9856600e-001
  4.1650000e+000  2.0579800e-001
  4.1700000e+000  1.8425300e-001
  4.1750000e+000  2.0912500e-001
  4.1800000e+000  2.1599100e-001
  4.1850000e+000  1.8562600e-001
  4.1900000e+000  2.3497400e-001
  4.1950000e+000  2.8038400e-001
  4.2000000e+000  2.1101700e-001
  4.2050000e+000  2.0378400e-001
  4.2100000e+000  2.9027200e-001
  4.2150000e+000  2.3793400e-001
  4.2200000e+000  1.5007200e-001
  4.2250000e+000  2.4260300e-001
  4.2300000e+000  2.5026300e-001
  4.2350000e+000  1.4702100e-001
  4.2400000e+000  1.6285900e-001
  4.2450000e+000  2.1269500e-001
  4.2500000e+000  1.2694000e-001
  4.2550000e+000  5.8579000e-002
  4.2600000e+000  1.5394800e-001
  4.2650000e+000  1.3276900e-001
  4.2700000e+000  2.8885000e-002
  4.2750000e+000  9.4713000e-002
  4.2800000e+000  8.8243000e-002
  4.2850000e+000  8.4380000e-003
  4.2900000e+000  6.7613000e-002
  4.2950000e+000  1.0420400e-001
  4.3000000e+000  1.9242000e-002
  4.3050000e+000  3.4012000e-002
  4.3100000e+000  1.0768300e-001
  4.3150000e+000  4.0787000e-002
  4.3200000e+000  3.5904000e-002
  4.3250000e+000  6.0899000e-002
  4.3300000e+000  3.1083000e-002
  4.3350000e+000  1.4389000e-002
  4.3400000e+000  4.1306000e-002
  4.3450000e+000  8.4825000e-002
  4.3500000e+000  1.6129000e-002
  4.3550000e+000 -1.1215000e-002
  4.3600000e+000  1.2251500e-001
  4.3650000e+000  4.8753000e-002
  4.3700000e+000  6.9430000e-003
  4.3750000e+000  6.8894000e-002
  4.3800000e+000  7.4815000e-002
  4.3850000e+000 -6.2720000e-003
  4.3900000e+000  4.3046000e-002
  4.3950000e+000  7.2190000e-002
  4.4000000e+000  1.9516000e-002
  4.4050000e+000  1.8295000e-002
  4.4100000e+000  1.1213800e-001
  4.4150000e+000  2.7420000e-002
  4.4200000e+000  1.2100000e-002
  4.4250000e+000  7.6951000e-002
  4.4300000e+000  5.2689000e-002
  4.4350000e+000  1.5824000e-002
  4.4400000e+000  4.8569000e-002
  4.4450000e+000  9.8741000e-002
  4.4500000e+000  7.2170000e-003
  4.4550000e+000  5.6962000e-002
  4.4600000e+000  8.3818000e-002
  4.4650000e+000  5.1713000e-002
  4.4700000e+000 -1.8570000e-002
  4.4750000e+000  1.0347100e-001
  4.4800000e+000  6.8131000e-002
  4.4850000e+000 -1.3230000e-002
  4.4900000e+000  4.0238000e-002
  4.4950000e+000  7.7684000e-002
  4.5000000e+000  3.4256000e-002
  4.5050000e+000  2.0340000e-002
  4.5100000e+000  5.1194000e-002
  4.5150000e+000  3.6789000e-002
  4.5200000e+000 -4.2863000e-002
  4.5250000e+000  6.4347000e-002
  4.5300000e+000  6.3065000e-002
  4.5350000e+000 -4.1215000e-002
  4.5400000e+000  1.4328000e-002
  4.5450000e+000  6.4988000e-002
  4.5500000e+000  7.3700000e-003
  4.5550000e+000  1.1917000e-002
  4.5600000e+000  1.0777400e-001
  4.5650000e+000  9.3370000e-002
  4.5700000e+000  3.3158000e-002
  4.5750000e+000  1.1143700e-001
  4.5800000e+000  7.6646000e-002
  4.5850000e+000  1.1948000e-002
  4.5900000e+000  1.5427000e-002
  4.5950000e+000  5.0462000e-002
  4.6000000e+000  3.2200000e-003
  4.6050000e+000  2.9750000e-003
  4.6100000e+000  6.8772000e-002
  4.6150000e+000  1.7105000e-002
  4.6200000e+000 -9.3230000e-003
  4.6250000e+000  5.8762000e-002
  4.6300000e+000  3.4562000e-002
  4.6350000e+000 -1.8784000e-002
  4.6400000e+000  2.7329000e-002
  4.6450000e+000  5.5619000e-002
  4.6500000e+000  2.8397000e-002
  4.6550000e+000  1.0704200e-001
  4.6600000e+000  2.9274400e-001
  4.6650000e+000  3.3742300e-001
  4.6700000e+000  3.2338400e-001
  4.6750000e+000  4.6056300e-001
  4.6800000e+000  4.6874200e-001
  4.6850000e+000  2.1440400e-001
  4.6900000e+000  8.8212000e-002
  4.6950000e+000 -1.1039900e-001
  4.7000000e+000 -1.0383800e-001
  4.7050000e+000 -3.6027000e-002
  4.7100000e+000  4.9668000e-002
  4.7150000e+000 -1.1429000e-002
  4.7200000e+000 -5.0553000e-002
  4.7250000e+000  6.3828000e-002
  4.7300000e+000  5.6138000e-002
  4.7350000e+000  1.9699000e-002
  4.7400000e+000  4.3259000e-002
  4.7450000e+000  9.5994000e-002
  4.7500000e+000  3.7583000e-002
  4.7550000e+000  1.6678000e-002
  4.7600000e+000  1.1958500e-001
  4.7650000e+000  5.5253000e-002
  4.7700000e+000  1.4511000e-002
  4.7750000e+000  8.5649000e-002
  4.7800000e+000  5.8335000e-002
  4.7850000e+000  4.2008000e-002
  4.7900000e+000  5.8152000e-002
  4.7950000e+000  1.1372500e-001
  4.8000000e+000  4.4449000e-002
  4.8050000e+000  9.5354000e-002
  4.8100000e+000  9.5964000e-002
  4.8150000e+000  1.0209800e-001
  4.8200000e+000  7.1519000e-002
  4.8250000e+000  1.4677600e-001
  4.8300000e+000  1.2416300e-001
  4.8350000e+000  6.0929000e-002
  4.8400000e+000  1.1845600e-001
  4.8450000e+000  2.0116000e-001
  4.8500000e+000  1.3350100e-001
  4.8550000e+000  1.0347100e-001
  4.8600000e+000  2.6094400e-001
  4.8650000e+000  1.8083500e-001
  4.8700000e+000  1.3621700e-001
  4.8750000e+000  2.1907400e-001
  4.8800000e+000  2.3476000e-001
  4.8850000e+000  1.5269700e-001
  4.8900000e+000  1.5574900e-001
  4.8950000e+000  2.0705000e-001
  4.9000000e+000  1.4818000e-001
  4.9050000e+000  1.1769300e-001
  4.9100000e+000  2.0778200e-001
  4.9150000e+000  1.6823100e-001
  4.9200000e+000  9.7856000e-002
  4.9250000e+000  1.4253400e-001
  4.9300000e+000  1.0911700e-001
  4.9350000e+000  3.9658000e-002
  4.9400000e+000  9.7917000e-002
  4.9450000e+000  1.2367400e-001
  4.9500000e+000  1.0239000e-002
  4.9550000e+000  2.2934000e-002
  4.9600000e+000  6.4347000e-002
  4.9650000e+000  1.4450000e-002
  4.9700000e+000 -1.1704000e-002
  4.9750000e+000  5.5070000e-002
  4.9800000e+000  2.1317000e-002
  4.9850000e+000 -5.8610000e-002
  4.9900000e+000  1.4084000e-002
  4.9950000e+000  4.8447000e-002
  5.0000000e+000 -4.3490000e-003
  5.0050000e+000 -1.1948000e-002
  5.0100000e+000  5.6535000e-002
  5.0150000e+000 -2.0737000e-002
  5.0200000e+000 -2.0951000e-002
  5.0250000e+000  3.4073000e-002
  5.0300000e+000  3.5172000e-002
  5.0350000e+000 -2.5254000e-002
  5.0400000e+000 -1.7850000e-003
  5.0450000e+000  5.0370000e-002
  5.0500000e+000 -3.2944000e-002
  5.0550000e+000 -2.4308000e-002
  5.0600000e+000  7.0787000e-002
  5.0650000e+000  1.5152000e-002
  5.0700000e+000 -6.0624000e-002
  5.0750000e+000  3.0625000e-002
  5.0800000e+000  2.6780000e-002
  5.0850000e+000 -4.9302000e-002
  5.0900000e+000  1.6312000e-002
  5.0950000e+000  2.4460000e-002
  5.1000000e+000 -5.0675000e-002
  5.1050000e+000 -6.5460000e-003
  5.1100000e+000  6.6941000e-002
  5.1150000e+000 -1.3291000e-002
  5.1200000e+000 -3.5630000e-002
  5.1250000e+000  3.6149000e-002
  5.1300000e+000  2.6444000e-002
  5.1350000e+000 -2.9007000e-002
  5.1400000e+000  1.0605000e-002
  5.1450000e+000  5.4642000e-002
  5.1500000e+000 -6.6972000e-002
  5.1550000e+000 -2.9450000e-003
  5.1600000e+000  4.3931000e-002
  5.1650000e+000  1.4633000e-002
  5.1700000e+000 -8.1285000e-002
  5.1750000e+000  1.4939000e-002
  5.1800000e+000  2.4887000e-002
  5.1850000e+000 -3.5569000e-002
  5.1900000e+000 -2.8275000e-002
  5.1950000e+000  4.0055000e-002
  5.2000000e+000 -3.5996000e-002
  5.2050000e+000 -2.5528000e-002
  5.2100000e+000 -1.3138000e-002
  5.2150000e+000 -5.0248000e-002
  5.2200000e+000 -6.8528000e-002
  5.2250000e+000 -1.0220000e-003
  5.2300000e+000  6.6990000e-003
  5.2350000e+000 -7.2587000e-002
  5.2400000e+000 -1.5793000e-002
  5.2450000e+000  4.8508000e-002
  5.2500000e+000 -6.6575000e-002
  5.2550000e+000 -1.5305000e-002
  5.2600000e+000  6.4286000e-002
  5.2650000e+000 -4.2270000e-003
  5.2700000e+000 -2.5790000e-003
  5.2750000e+000  2.7878000e-002
  5.2800000e+000 -1.2650000e-002
  5.2850000e+000 -5.5924000e-002
  5.2900000e+000 -4.4480000e-002
  5.2950000e+000  2.0493000e-002
  5.3000000e+000 -5.2201000e-002
  5.3050000e+000 -2.0646000e-002
  5.3100000e+000  8.4080000e-003
  5.3150000e+000 -1.7472000e-002
  5.3200000e+000 -6.6087000e-002
  5.3250000e+000 -1.8770000e-003
  5.3300000e+000 -1.5410000e-003
  5.3350000e+000 -6.9749000e-002
  5.3400000e+000 -4.3809000e-002
  5.3450000e+000  1.9669000e-002
  5.3500000e+000  1.1063000e-002
  5.3550000e+000  1.1763200e-001
  5.3600000e+000  3.0421900e-001
  5.3650000e+000  3.2356700e-001
  5.3700000e+000  3.2524600e-001
  5.3750000e+000  3.8854000e-001
  5.3800000e+000  2.4425100e-001
  5.3850000e+000 -1.1440000e-003
  5.3900000e+000 -1.6945200e-001
  5.3950000e+000 -1.3286000e-001
  5.4000000e+000 -1.3658400e-001
  5.4050000e+000 -7.1916000e-002
  5.4100000e+000  2.2965000e-002
  5.4150000e+000 -2.5040000e-002
  5.4200000e+000 -6.5324000e-002
  5.4250000e+000 -1.5854000e-002
  5.4300000e+000  1.1307000e-002
  5.4350000e+000 -7.1000000e-002
  5.4400000e+000 -1.8387000e-002
  5.4450000e+000  4.9546000e-002
  5.4500000e+000 -4.8417000e-002
  5.4550000e+000 -3.2090000e-002
  5.4600000e+000  4.0848000e-002
  5.4650000e+000 -5.0810000e-003
  5.4700000e+000 -1.4969000e-002
  5.4750000e+000  3.8804000e-002
  5.4800000e+000  5.6413000e-002
  5.4850000e+000 -3.3249000e-002
  5.4900000e+000  4.4938000e-002
  5.4950000e+000  3.4104000e-002
  5.5000000e+000  2.3545000e-002
  5.5050000e+000  1.3748000e-002
  5.5100000e+000  6.3737000e-002
  5.5150000e+000  4.4846000e-002
  5.5200000e+000  4.5640000e-002
  5.5250000e+000  8.7449000e-002
  5.5300000e+000  1.0917800e-001
  5.5350000e+000  2.0401000e-002
  5.5400000e+000  1.1589200e-001
  5.5450000e+000  1.4216800e-001
  5.5500000e+000  1.0173200e-001
  5.5550000e+000  9.4011000e-002
  5.5600000e+000  1.5831200e-001
  5.5650000e+000  1.3673600e-001
  5.5700000e+000  6.9963000e-002
  5.5750000e+000  1.8464900e-001
  5.5800000e+000  1.5910600e-001
  5.5850000e+000  9.5170000e-002
  5.5900000e+000  1.5300200e-001
  5.5950000e+000  2.0048800e-001
  5.6000000e+000  9.3126000e-002
  5.6050000e+000  1.2343000e-001
  5.6100000e+000  1.2526100e-001
  5.6150000e+000  6.9444000e-002
  5.6200000e+000  4.9851000e-002
  5.6250000e+000  9.6361000e-002
  5.6300000e+000  5.9586000e-002
  5.6350000e+000 -4.4938000e-002
  5.6400000e+000  2.3850000e-002
  5.6450000e+000  3.2914000e-002
  5.6500000e+000  7.5840000e-003
  5.6550000e+000 -6.6606000e-002
  5.6600000e+000 -2.2900000e-004
  5.6650000e+000 -3.7247000e-002
  5.6700000e+000 -6.4317000e-002
  5.6750000e+000 -4.5320000e-003
  5.6800000e+000 -4.2802000e-002
  5.6850000e+000 -1.1464100e-001
  5.6900000e+000 -2.4399000e-002
  5.6950000e+000  2.8977000e-002
  5.7000000e+000 -9.3187000e-002
  5.7050000e+000 -5.8579000e-002
  5.7100000e+000 -2.5480000e-003
  5.7150000e+000 -8.3696000e-002
  5.7200000e+000 -9.0471000e-002
  5.7250000e+000 -3.9445000e-002
  5.7300000e+000 -4.9900000e-003
  5.7350000e+000 -7.7806000e-002
  5.7400000e+000 -1.5549000e-002
  5.7450000e+000 -1.7258000e-002
  5.7500000e+000 -8.6534000e-002
  5.7550000e+000 -7.2038000e-002
  5.7600000e+000 -4.0440000e-003
  5.7650000e+000 -4.5976000e-002
  5.7700000e+000 -5.6535000e-002
  5.7750000e+000  1.6007000e-002
  5.7800000e+000 -2.5895000e-002
  5.7850000e+000 -7.8721000e-002
  5.7900000e+000 -1.2894000e-002
  5.7950000e+000  2.9129000e-002
  5.8000000e+000 -3.5020000e-002
  5.8050000e+000 -2.1836000e-002
  5.8100000e+000  4.1215000e-002
  5.8150000e+000  2.5790000e-003
  5.8200000e+000 -2.9648000e-002
  5.8250000e+000  1.5000000e-002
  5.8300000e+000  4.6230000e-003
  5.8350000e+000 -4.5640000e-002
  5.8400000e+000  1.0086000e-002
  5.8450000e+000  4.9607000e-002
  5.8500000e+000 -9.1400000e-003
  5.8550000e+000 -2.4430000e-002
  5.8600000e+000  6.8223000e-002
  5.8650000e+000 -3.8193000e-002
  5.8700000e+000 -4.9332000e-002
  5.8750000e+000  3.5691000e-002
  5.8800000e+000  3.6057000e-002
  5.8850000e+000 -9.7200000e-003
  5.8900000e+000  3.1388000e-002
  5.8950000e+000  6.4744000e-002
  5.9000000e+000 -1.1063000e-002
  5.9050000e+000 -8.4380000e-003
  5.9100000e+000  8.0308000e-002
  5.9150000e+000  7.2770000e-002
  5.9200000e+000 -4.6189000e-002
  5.9250000e+000  3.4775000e-002
  5.9300000e+000  8.6290000e-002
  5.9350000e+000  1.3596000e-002
  5.9400000e+000  6.3554000e-002
  5.9450000e+000  8.5130000e-002
  5.9500000e+000  7.0542000e-002
  5.9550000e+000  2.8275000e-002
  5.9600000e+000  1.0945300e-001
  5.9650000e+000  6.0532000e-002
  5.9700000e+000 -2.0218000e-002
  5.9750000e+000  8.1041000e-002
  5.9800000e+000  2.3819000e-002
  5.9850000e+000 -1.3321000e-002
  5.9900000e+000  4.1245000e-002
  5.9950000e+000  6.8681000e-002
  6.0000000e+000  6.7600000e-003
  6.0050000e+000 -3.5550000e-003
  6.0100000e+000  5.1347000e-002
  6.0150000e+000  2.0157000e-002
  6.0200000e+000  5.0300000e-004
  6.0250000e+000  3.8926000e-002
  6.0300000e+000  1.4572000e-002
  6.0350000e+000  4.4297000e-002
  6.0400000e+000  1.3676700e-001
  6.0450000e+000  2.7721100e-001
  6.0500000e+000  2.8416900e-001
  6.0550000e+000  3.5118600e-001
  6.0600000e+000  4.8714400e-001
  6.0650000e+000  3.1502200e-001
  6.0700000e+000  1.1528200e-001
  6.0750000e+000 -4.9058000e-002
  6.0800000e+000 -1.5526100e-001
  6.0850000e+000 -1.3139600e-001
  6.0900000e+000 -3.4592000e-002
  6.0950000e+000  1.7960000e-002
  6.1000000e+000 -2.5681000e-002
  6.1050000e+000 -5.6077000e-002
  6.1100000e+000  5.5405000e-002
  6.1150000e+000  1.3352000e-002
  6.1200000e+000 -7.5609000e-002
  6.1250000e+000  6.2028000e-002
  6.1300000e+000  4.0696000e-002
  6.1350000e+000 -2.0584000e-002
  6.1400000e+000  1.2833000e-002
  6.1450000e+000  6.3401000e-002
  6.1500000e+000 -6.9430000e-003
  6.1550000e+000 -6.3940000e-003
  6.1600000e+000  9.5323000e-002
  6.1650000e+000  5.9660000e-003
  6.1700000e+000 -1.3108000e-002
  6.1750000e+000  6.2486000e-002
  6.1800000e+000  5.6260000e-002
  6.1850000e+000  1.5640000e-002
  6.1900000e+000  6.5232000e-002
  6.1950000e+000  8.6992000e-002
  6.2000000e+000  1.9638000e-002
  6.2050000e+000  3.6149000e-002
  6.2100000e+000  1.0142700e-001
  6.2150000e+000  6.7460000e-002
  6.2200000e+000  3.1907000e-002
  6.2250000e+000  1.4213800e-001
  6.2300000e+000  1.2687900e-001
  6.2350000e+000  7.5883000e-002
  6.2400000e+000  1.4424300e-001
  6.2450000e+000  1.4049000e-001
  6.2500000e+000  1.0121300e-001
  6.2550000e+000  1.0478400e-001
  6.2600000e+000  1.7167900e-001
  6.2650000e+000  1.3121200e-001
  6.2700000e+000  1.1009400e-001
  6.2750000e+000  1.7085500e-001
  6.2800000e+000  1.5800700e-001
  6.2850000e+000  1.1104000e-001
  6.2900000e+000  1.1940200e-001
  6.2950000e+000  1.3102900e-001
  6.3000000e+000  4.9607000e-002
  6.3050000e+000  7.4784000e-002
  6.3100000e+000  7.5944000e-002
  6.3150000e+000  2.7542000e-002
  6.3200000e+000 -3.4501000e-002
  6.3250000e+000  6.5232000e-002
  6.3300000e+000  2.5986000e-002
  6.3350000e+000 -3.9872000e-002
  6.3400000e+000 -3.0808000e-002
  6.3450000e+000 -2.4125000e-002
  6.3500000e+000 -7.3533000e-002
  6.3550000e+000 -5.5100000e-002
  6.3600000e+000 -3.4640000e-003
  6.3650000e+000 -8.5771000e-002
  6.3700000e+000 -7.8935000e-002
  6.3750000e+000 -4.7837000e-002
  6.3800000e+000 -3.2822000e-002
  6.3850000e+000 -1.0710300e-001
  6.3900000e+000 -4.4694000e-002
  6.3950000e+000 -4.1337000e-002
  6.4000000e+000 -6.1875000e-002
  6.4050000e+000 -6.2913000e-002
  6.4100000e+000 -6.3940000e-003
  6.4150000e+000 -7.8019000e-002
  6.4200000e+000 -1.0518100e-001
  6.4250000e+000 -8.9067000e-002
  6.4300000e+000 -5.8702000e-002
  6.4350000e+000 -6.8406000e-002
  6.4400000e+000 -1.7240000e-003
  6.4450000e+000 -2.3819000e-002
  6.4500000e+000 -9.0379000e-002
  6.4550000e+000 -6.1021000e-002
  6.4600000e+000 -3.6606000e-002
  6.4650000e+000 -6.3798000e-002
  6.4700000e+000 -5.5833000e-002
  6.4750000e+000 -4.1489000e-002
  6.4800000e+000 -2.5040000e-002
  6.4850000e+000 -7.2007000e-002
  6.4900000e+000 -3.1479000e-002
  6.4950000e+000 -1.7319000e-002
  6.5000000e+000 -8.8335000e-002
  6.5050000e+000 -4.5731000e-002
  6.5100000e+000 -1.2467000e-002
  6.5150000e+000 -4.4480000e-002
  6.5200000e+000 -9.6300000e-002
  6.5250000e+000 -3.3066000e-002
  6.5300000e+000 -3.9506000e-002
  6.5350000e+000 -8.3818000e-002
  6.5400000e+000 -3.4073000e-002
  6.5450000e+000 -2.0493000e-002
  6.5500000e+000 -9.3217000e-002
  6.5550000e+000 -8.8121000e-002
  6.5600000e+000 -9.2620000e-003
  6.5650000e+000 -6.9841000e-002
  6.5700000e+000 -9.3553000e-002
  6.5750000e+000 -7.0390000e-002
  6.5800000e+000 -1.2894000e-002
  6.5850000e+000 -1.0524200e-001
  6.5900000e+000 -1.0661500e-001
  6.5950000e+000 -1.8021000e-002
  6.6000000e+000 -6.9169000e-002
  6.6050000e+000 -9.4835000e-002
  6.6100000e+000 -4.5365000e-002
  6.6150000e+000 -9.4011000e-002
  6.6200000e+000 -1.2336900e-001
  6.6250000e+000 -4.2985000e-002
  6.6300000e+000 -5.3239000e-002
  6.6350000e+000 -9.8924000e-002
  6.6400000e+000 -6.7491000e-002
  6.6450000e+000 -3.1968000e-002
  6.6500000e+000 -1.3585100e-001
  6.6550000e+000 -8.8243000e-002
  6.6600000e+000  8.4080000e-003
  6.6650000e+000 -1.5946000e-002
  6.6700000e+000 -3.2181000e-002
  6.6750000e+000  1.0361000e-002
  6.6800000e+000 -4.0147000e-002
  6.6850000e+000 -1.3124300e-001
  6.6900000e+000 -8.5802000e-002
  6.6950000e+000 -6.9078000e-002
  6.7000000e+000 -8.6870000e-002
  6.7050000e+000 -7.6219000e-002
  6.7100000e+000 -1.1582000e-002
  6.7150000e+000 -6.7857000e-002
  6.7200000e+000 -1.1979900e-001
  6.7250000e+000 -3.3219000e-002
  6.7300000e+000 -6.0411000e-002
  6.7350000e+000 -1.1354200e-001
  6.7400000e+000 -1.2070000e-002
  6.7450000e+000  3.2500000e-003
  6.7500000e+000 -3.3720000e-003
  6.7550000e+000  1.5278900e-001
  6.7600000e+000  2.8120800e-001
  6.7650000e+000  2.9326300e-001
  6.7700000e+000  2.9253100e-001
  6.7750000e+000  3.1798300e-001
  6.7800000e+000  1.4619700e-001
  6.7850000e+000 -1.3078500e-001
  6.7900000e+000 -2.2795500e-001
  6.7950000e+000 -1.0121300e-001
  6.8000000e+000 -1.4384700e-001
  6.8050000e+000 -9.7093000e-002
  6.8100000e+000 -2.2232000e-002
  6.8150000e+000 -1.0597400e-001
  6.8200000e+000 -1.2037800e-001
  6.8250000e+000 -1.3169000e-002
  6.8300000e+000 -1.4420000e-002
  6.8350000e+000 -7.1946000e-002
  6.8400000e+000 -2.9160000e-002
  6.8450000e+000  2.1561000e-002
  6.8500000e+000 -8.6320000e-002
  6.8550000e+000 -4.9943000e-002
  6.8600000e+000  1.0239000e-002
  6.8650000e+000 -6.3127000e-002
  6.8700000e+000 -4.8844000e-002
  6.8750000e+000  3.5447000e-002
  6.8800000e+000  6.7900000e-003
  6.8850000e+000 -5.1469000e-002
  6.8900000e+000  4.6921000e-002
  6.8950000e+000  1.2741000e-002
  6.9000000e+000 -3.8499000e-002
  6.9050000e+000 -4.6850000e-003
  6.9100000e+000  5.7542000e-002
  6.9150000e+000 -9.8120000e-003
  6.9200000e+000 -9.0288000e-002
  6.9250000e+000  1.3835300e-001
  6.9300000e+000  9.2180000e-002
  6.9350000e+000 -7.1570000e-003
  6.9400000e+000  8.9250000e-002
  6.9450000e+000  1.3539300e-001
  6.9500000e+000  1.6068000e-002
  6.9550000e+000  7.9545000e-002
  6.9600000e+000  1.3859800e-001
  6.9650000e+000  8.5405000e-002
  6.9700000e+000  5.7877000e-002
  6.9750000e+000  1.5724400e-001
  6.9800000e+000  1.0865900e-001
  6.9850000e+000  6.6331000e-002
  6.9900000e+000  1.3527100e-001
  6.9950000e+000  1.1436600e-001
  7.0000000e+000  3.9292000e-002
  7.0050000e+000  1.0637100e-001
  7.0100000e+000  1.1018500e-001
  7.0150000e+000  1.2375000e-002
  7.0200000e+000  3.4745000e-002
  7.0250000e+000  9.1905000e-002
  7.0300000e+000  1.5410000e-003
  7.0350000e+000 -4.5670000e-002
  7.0400000e+000 -3.0670000e-003
  7.0450000e+000 -2.2934000e-002
  7.0500000e+000 -9.0501000e-002
  7.0550000e+000 -4.5152000e-002
  7.0600000e+000 -4.6769000e-002
  7.0650000e+000 -4.8051000e-002
  7.0700000e+000 -9.4163000e-002
  7.0750000e+000  1.4511000e-002
  7.0800000e+000 -3.8621000e-002
  7.0850000e+000 -1.0670600e-001
  7.0900000e+000 -5.1347000e-002
  7.0950000e+000 -3.5233000e-002
  7.1000000e+000 -1.1601400e-001
  7.1050000e+000 -6.4164000e-002
  7.1100000e+000 -4.9900000e-003
  7.1150000e+000 -8.0736000e-002
  7.1200000e+000 -9.4621000e-002
  7.1250000e+000 -6.2600000e-004
  7.1300000e+000 -1.5885000e-002
  7.1350000e+000 -1.1070400e-001
  7.1400000e+000 -6.0166000e-002
  7.1450000e+000 -2.0951000e-002
  7.1500000e+000 -1.1250500e-001
  7.1550000e+000 -5.9251000e-002
  7.1600000e+000 -5.9500000e-004
  7.1650000e+000 -8.7419000e-002
  7.1700000e+000 -1.0209800e-001
  7.1750000e+000 -3.5599000e-002
  7.1800000e+000 -2.4155000e-002
  7.1850000e+000 -7.7623000e-002
  7.1900000e+000 -8.0613000e-002
  7.1950000e+000 -2.9618000e-002
  7.2000000e+000 -4.1978000e-002
  7.2050000e+000 -5.1988000e-002
  7.2100000e+000 -3.5477000e-002
  7.2150000e+000 -2.9862000e-002
  7.2200000e+000 -8.2170000e-002
  7.2250000e+000 -1.9150000e-002
  7.2300000e+000 -5.6565000e-002
  7.2350000e+000 -9.6544000e-002
  7.2400000e+000 -1.4420000e-002
  7.2450000e+000 -2.5925000e-002
  7.2500000e+000 -1.0319700e-001
  7.2550000e+000 -4.3168000e-002
  7.2600000e+000  2.7620000e-003
  7.2650000e+000 -9.3553000e-002
  7.2700000e+000 -8.4398000e-002
  7.2750000e+000 -9.5980000e-003
  7.2800000e+000 -6.5995000e-002
  7.2850000e+000 -1.0447900e-001
  7.2900000e+000 -3.5111000e-002
  7.2950000e+000 -4.2985000e-002
  7.3000000e+000 -6.6087000e-002
  7.3050000e+000 -5.1560000e-002
  7.3100000e+000 -4.3443000e-002
  7.3150000e+000 -1.0069400e-001
  7.3200000e+000 -1.4680700e-001
  7.3250000e+000 -4.3504000e-002
  7.3300000e+000 -4.6037000e-002
  7.3350000e+000 -8.1285000e-002
  7.3400000e+000 -6.2944000e-002
  7.3450000e+000 -2.5162000e-002
  7.3500000e+000 -1.2550600e-001
  7.3550000e+000 -3.8468000e-002
  7.3600000e+000 -4.7150000e-003
  7.3650000e+000 -4.5152000e-002
  7.3700000e+000 -2.7421000e-002
  7.3750000e+000 -4.3137000e-002
  7.3800000e+000 -3.9445000e-002
  7.3850000e+000 -8.9891000e-002
  7.3900000e+000 -4.3229000e-002
  7.3950000e+000 -3.9811000e-002
  7.4000000e+000 -9.5476000e-002
  7.4050000e+000 -7.1885000e-002
  7.4100000e+000 -4.1276000e-002
  7.4150000e+000 -8.7236000e-002
  7.4200000e+000 -1.0600400e-001
  7.4250000e+000 -1.4969000e-002
  7.4300000e+000 -7.8508000e-002
  7.4350000e+000 -1.2776400e-001
  7.4400000e+000 -5.3727000e-002
  7.4450000e+000 -6.7600000e-003
  7.4500000e+000 -1.8814000e-002
  7.4550000e+000  1.6020400e-001
  7.4600000e+000  2.6781100e-001
  7.4650000e+000  2.4217600e-001
  7.4700000e+000  2.3610300e-001
  7.4750000e+000  3.4929400e-001
  7.4800000e+000  2.2078300e-001
  7.4850000e+000 -1.9883000e-002
  7.4900000e+000 -2.1910400e-001
  7.4950000e+000 -1.3954400e-001
  7.5000000e+000 -1.4702100e-001
  7.5050000e+000 -7.0939000e-002
  7.5100000e+000 -1.0422000e-002
  7.5150000e+000 -5.0980000e-002
  7.5200000e+000 -1.2010400e-001
  7.5250000e+000 -2.4857000e-002
  7.5300000e+000 -4.5274000e-002
  7.5350000e+000 -1.2648200e-001
  7.5400000e+000  1.3046000e-002
  7.5450000e+000 -4.4175000e-002
  7.5500000e+000 -5.9587000e-002
  7.5550000e+000 -1.0220000e-003
  7.5600000e+000  2.5009000e-002
  7.5650000e+000 -2.6658000e-002
  7.5700000e+000 -2.5132000e-002
  7.5750000e+000  4.3107000e-002
  7.5800000e+000 -2.8916000e-002
  7.5850000e+000 -4.9790000e-002
  7.5900000e+000  2.4216000e-002
  7.5950000e+000  6.4958000e-002
  7.6000000e+000 -4.0360000e-002
  7.6050000e+000 -1.0849000e-002
  7.6100000e+000  8.4764000e-002
  7.6150000e+000 -2.7620000e-003
  7.6200000e+000  2.3350000e-003
  7.6250000e+000  9.4041000e-002
  7.6300000e+000  4.4541000e-002
  7.6350000e+000  6.5600000e-004
  7.6400000e+000  7.8233000e-002
  7.6450000e+000  1.1668600e-001
  7.6500000e+000  3.9719000e-002
  7.6550000e+000  7.7806000e-002
  7.6600000e+000  1.3167000e-001
  7.6650000e+000  1.1555600e-001
  7.6700000e+000  6.9902000e-002
  7.6750000e+000  1.3707200e-001
  7.6800000e+000  1.1754000e-001
  7.6850000e+000  8.9403000e-002
  7.6900000e+000  1.4985900e-001
  7.6950000e+000  1.2938100e-001
  7.7000000e+000  1.4664000e-002
  7.7050000e+000  8.3177000e-002
  7.7100000e+000  1.1549500e-001
  7.7150000e+000  2.4887000e-002
  7.7200000e+000 -2.4186000e-002
  7.7250000e+000  9.9962000e-002
  7.7300000e+000  3.8300000e-003
  7.7350000e+000 -4.3015000e-002
  7.7400000e+000  1.2009000e-002
  7.7450000e+000 -1.1215000e-002
  7.7500000e+000 -5.5161000e-002
  7.7550000e+000 -4.8020000e-002
  7.7600000e+000 -7.1870000e-003
  7.7650000e+000 -8.3055000e-002
  7.7700000e+000 -1.0881200e-001
  7.7750000e+000 -8.1682000e-002
  7.7800000e+000 -4.2710000e-002
  7.7850000e+000 -1.0161000e-001
  7.7900000e+000  2.9000000e-004
  7.7950000e+000 -4.7654000e-002
  7.8000000e+000 -1.2221000e-001
  7.8050000e+000 -7.2221000e-002
  7.8100000e+000 -4.2130000e-002
  7.8150000e+000 -6.1357000e-002
  7.8200000e+000 -9.1875000e-002
  7.8250000e+000 -5.3361000e-002
  7.8300000e+000 -5.7908000e-002
  7.8350000e+000 -9.3858000e-002
  7.8400000e+000 -7.7470000e-002
  7.8450000e+000  5.5080000e-003
  7.8500000e+000 -1.1186400e-001
  7.8550000e+000 -6.0350000e-002
  7.8600000e+000 -3.4867000e-002
  7.8650000e+000 -7.9515000e-002
  7.8700000e+000 -1.1332900e-001
  7.8750000e+000 -3.6454000e-002
  7.8800000e+000 -6.3096000e-002
  7.8850000e+000 -1.3783500e-001
  7.8900000e+000 -8.1651000e-002
  7.8950000e+000 -4.6891000e-002
  7.9000000e+000 -1.1287100e-001
  7.9050000e+000 -4.3473000e-002
  7.9100000e+000 -1.0636000e-002
  7.9150000e+000 -9.5750000e-002
  7.9200000e+000 -6.7796000e-002
  7.9250000e+000  8.8650000e-003
  7.9300000e+000 -4.3015000e-002
  7.9350000e+000 -1.3536300e-001
  7.9400000e+000 -6.5660000e-002
  7.9450000e+000 -4.7532000e-002
  7.9500000e+000 -1.1082600e-001
  7.9550000e+000 -7.7775000e-002
  7.9600000e+000 -2.8214000e-002
  7.9650000e+000 -7.9027000e-002
  7.9700000e+000 -1.1384800e-001
  7.9750000e+000 -5.7725000e-002
  7.9800000e+000 -6.3645000e-002
  7.9850000e+000 -1.0319700e-001
  7.9900000e+000 -2.5071000e-002
  7.9950000e+000 -4.8692000e-002
  8.0000000e+000 -1.0209800e-001
  8.0050000e+000 -1.0841500e-001
  8.0100000e+000 -6.4988000e-002
  8.0150000e+000 -8.3055000e-002
  8.0200000e+000 -6.9261000e-002
  8.0250000e+000 -3.3616000e-002
  8.0300000e+000 -8.0613000e-002
  8.0350000e+000 -1.9615500e-001
  8.0400000e+000 -1.6190000e-002
  8.0450000e+000 -7.2862000e-002
  8.0500000e+000 -1.3112100e-001
  8.0550000e+000 -6.8210000e-003
  8.0600000e+000  5.8750000e-003
  8.0650000e+000 -1.4198500e-001
  8.0700000e+000 -8.3543000e-002
  8.0750000e+000 -2.7573000e-002
  8.0800000e+000 -7.0634000e-002
  8.0850000e+000 -5.6535000e-002
  8.0900000e+000 -3.7186000e-002
  8.0950000e+000  9.5060000e-003
  8.1000000e+000 -1.1494600e-001
  8.1050000e+000 -8.4764000e-002
  8.1100000e+000 -4.8478000e-002
  8.1150000e+000 -6.9749000e-002
  8.1200000e+000 -1.4442700e-001
  8.1250000e+000 -5.0462000e-002
  8.1300000e+000 -9.6056000e-002
  8.1350000e+000 -1.2562800e-001
  8.1400000e+000 -8.8243000e-002
  8.1450000e+000 -9.9779000e-002
  8.1500000e+000 -1.7760000e-001
  8.1550000e+000 -7.7775000e-002
  8.1600000e+000 -2.8540000e-003
  8.1650000e+000 -1.1259600e-001
  8.1700000e+000  8.4990000e-003
  8.1750000e+000  2.2548200e-001
  8.1800000e+000  2.6259200e-001
  8.1850000e+000  1.9154600e-001
  8.1900000e+000  1.9728400e-001
  8.1950000e+000  1.9670400e-001
  8.2000000e+000 -1.6539300e-001
  8.2050000e+000 -3.0003800e-001
  8.2100000e+000 -1.9252300e-001
  8.2150000e+000 -1.8727400e-001
  8.2200000e+000 -1.4027600e-001
  8.2250000e+000 -6.0319000e-002
  8.2300000e+000 -1.1036900e-001
  8.2350000e+000 -1.6337800e-001
  8.2400000e+000 -1.3487500e-001
  8.2450000e+000 -1.8480200e-001
  8.2500000e+000 -2.4223700e-001
  8.2550000e+000 -2.0576800e-001
  8.2600000e+000 -1.0917800e-001
  8.2650000e+000 -1.8056000e-001
  8.2700000e+000 -2.2224800e-001
  8.2750000e+000 -1.3933000e-001
  8.2800000e+000 -1.5895300e-001
  8.2850000e+000 -1.4689900e-001
  8.2900000e+000 -1.0014500e-001
  8.2950000e+000 -1.5190400e-001
  8.3000000e+000 -1.7610400e-001
  8.3050000e+000 -1.6667400e-001
  8.3100000e+000 -9.4225000e-002
  8.3150000e+000 -1.5684800e-001
  8.3200000e+000 -1.4915700e-001
  8.3250000e+000 -7.8599000e-002
  8.3300000e+000 -1.1427500e-001
  8.3350000e+000 -1.6801700e-001
  8.3400000e+000 -1.0844600e-001
  8.3450000e+000 -8.8274000e-002
  8.3500000e+000 -1.5257500e-001
  8.3550000e+000 -1.0081600e-001
  8.3600000e+000 -5.2445000e-002
  8.3650000e+000 -1.0148800e-001
  8.3700000e+000 -1.1122300e-001
  8.3750000e+000  1.2650000e-002
  8.3800000e+000 -1.5000000e-005
  8.3850000e+000 -6.3218000e-002
  8.3900000e+000 -4.8264000e-002
  8.3950000e+000 -3.6698000e-002
  8.4000000e+000 -8.6442000e-002
  8.4050000e+000 -4.5518000e-002
  8.4100000e+000  1.7472000e-002
  8.4150000e+000 -6.4164000e-002
  8.4200000e+000 -9.2607000e-002
  8.4250000e+000 -4.0299000e-002
  8.4300000e+000 -6.6880000e-002
  8.4350000e+000 -1.4082600e-001
  8.4400000e+000 -7.8172000e-002
  8.4450000e+000 -1.3145700e-001
  8.4500000e+000 -1.6115100e-001
  8.4550000e+000 -1.6292100e-001
  8.4600000e+000 -9.1875000e-002
  8.4650000e+000 -1.4107000e-001
  8.4700000e+000 -9.8833000e-002
  8.4750000e+000 -2.4318300e-001
  8.4800000e+000 -2.0131200e-001
  8.4850000e+000 -2.3698800e-001
  8.4900000e+000 -1.5608500e-001
  8.4950000e+000 -1.7744700e-001
  8.5000000e+000 -2.3564500e-001
  8.5050000e+000 -1.9591100e-001
  8.5100000e+000 -1.4436600e-001
  8.5150000e+000 -1.8663300e-001
  8.5200000e+000 -2.0943000e-001
  8.5250000e+000 -1.6643000e-001
  8.5300000e+000 -1.8526000e-001
  8.5350000e+000 -2.3848300e-001
  8.5400000e+000 -1.4378600e-001
  8.5450000e+000 -1.6359200e-001
  8.5500000e+000 -2.0842300e-001
  8.5550000e+000 -1.9392700e-001
  8.5600000e+000 -1.6728500e-001
  8.5650000e+000 -1.9453700e-001
  8.5700000e+000 -1.9688700e-001
  8.5750000e+000 -1.6530100e-001
  8.5800000e+000 -2.1644900e-001
  8.5850000e+000 -1.9343900e-001
  8.5900000e+000 -1.5922800e-001
  8.5950000e+000 -1.8379500e-001
  8.6000000e+000 -2.4309200e-001
  8.6050000e+000 -2.0134300e-001
  8.6100000e+000 -1.3020500e-001
  8.6150000e+000 -2.2002000e-001
  8.6200000e+000 -2.1538100e-001
  8.6250000e+000 -1.7341900e-001
  8.6300000e+000 -1.9685700e-001
  8.6350000e+000 -2.3067100e-001
  8.6400000e+000 -1.8126200e-001
  8.6450000e+000 -1.5855700e-001
  8.6500000e+000 -2.3991800e-001
  8.6550000e+000 -2.1104800e-001
  8.6600000e+000 -1.5590200e-001
  8.6650000e+000 -2.1837200e-001
  8.6700000e+000 -2.0497500e-001
  8.6750000e+000 -1.8342900e-001
  8.6800000e+000 -2.3946000e-001
  8.6850000e+000 -2.5743500e-001
  8.6900000e+000 -1.8654200e-001
  8.6950000e+000 -1.7137400e-001
  8.7000000e+000 -2.4660100e-001
  8.7050000e+000 -2.8157500e-001
  8.7100000e+000 -2.0393700e-001
  8.7150000e+000 -2.4992800e-001
  8.7200000e+000 -2.3070100e-001
  8.7250000e+000 -1.7149600e-001
  8.7300000e+000 -2.2960300e-001
  8.7350000e+000 -2.7129000e-001
  8.7400000e+000 -1.8742700e-001
  8.7450000e+000 -1.6035700e-001
  8.7500000e+000 -2.4882900e-001
  8.7550000e+000 -1.9136300e-001
  8.7600000e+000 -1.5971600e-001
  8.7650000e+000 -2.2877900e-001
  8.7700000e+000 -2.4434300e-001
  8.7750000e+000 -1.5489400e-001
  8.7800000e+000 -2.1312300e-001
  8.7850000e+000 -3.2774900e-001
  8.7900000e+000 -2.0094600e-001
  8.7950000e+000 -2.0842300e-001
  8.8000000e+000 -2.6988600e-001
  8.8050000e+000 -2.2954200e-001
  8.8100000e+000 -1.9981700e-001
  8.8150000e+000 -2.1217700e-001
  8.8200000e+000 -2.9329400e-001
  8.8250000e+000 -2.2249200e-001
  8.8300000e+000 -2.2343800e-001
  8.8350000e+000 -2.3057900e-001
  8.8400000e+000 -1.4360300e-001
  8.8450000e+000 -5.1120000e-003
  8.8500000e+000 -2.9313000e-002
  8.8550000e+000  1.2553600e-001
  8.8600000e+000  1.7906500e-001
  8.8650000e+000  5.9647000e-002
  8.8700000e+000 -6.0136000e-002
  8.8750000e+000 -2.0766000e-001
  8.8800000e+000 -4.1615900e-001
  8.8850000e+000 -4.6529300e-001
  8.8900000e+000 -3.2741300e-001
  8.8950000e+000 -2.3671300e-001
  8.9000000e+000 -2.7040500e-001
  8.9050000e+000 -2.2322400e-001
  8.9100000e+000 -2.0293000e-001
  8.9150000e+000 -2.4312200e-001
  8.9200000e+000 -2.2636800e-001
  8.9250000e+000 -1.6850500e-001
  8.9300000e+000 -2.2081300e-001
  8.9350000e+000 -2.2871800e-001
  8.9400000e+000 -1.5779400e-001
  8.9450000e+000 -1.3624800e-001
  8.9500000e+000 -2.1657100e-001
  8.9550000e+000 -2.3842200e-001
  8.9600000e+000 -1.1735700e-001
  8.9650000e+000 -1.8907500e-001
  8.9700000e+000 -1.9420200e-001
  8.9750000e+000 -1.4961500e-001
  8.9800000e+000 -1.6008200e-001
  8.9850000e+000 -1.9545300e-001
  8.9900000e+000 -1.3063300e-001
  8.9950000e+000 -1.1900500e-001
  9.0000000e+000 -1.8358100e-001
  9.0050000e+000 -1.2324700e-001
  9.0100000e+000 -7.9759000e-002
  9.0150000e+000 -1.6203600e-001
  9.0200000e+000 -1.3185300e-001
  9.0250000e+000 -5.3086000e-002
  9.0300000e+000 -1.1174200e-001
  9.0350000e+000 -1.4253500e-001
  9.0400000e+000 -2.2782000e-002
  9.0450000e+000 -3.0594000e-002
  9.0500000e+000 -8.5100000e-002
  9.0550000e+000 -2.7665000e-002
  9.0600000e+000 -1.5000000e-005
  9.0650000e+000 -4.8936000e-002
  9.0700000e+000 -4.9119000e-002
  9.0750000e+000 -1.9455000e-002
  9.0800000e+000 -2.8306000e-002
  9.0850000e+000 -6.3340000e-002
  9.0900000e+000 -1.3413000e-002
  9.0950000e+000 -1.4756000e-002
  9.1000000e+000 -1.6438600e-001
  9.1050000e+000 -9.0837000e-002
  9.1100000e+000 -2.9862000e-002
  9.1150000e+000 -1.5156800e-001
  9.1200000e+000 -1.8941000e-001
  9.1250000e+000 -9.0471000e-002
  9.1300000e+000 -1.8480200e-001
  9.1350000e+000 -2.3656100e-001
  9.1400000e+000 -1.7476200e-001
  9.1450000e+000 -1.6542300e-001
  9.1500000e+000 -2.5389500e-001
  9.1550000e+000 -2.1458800e-001
  9.1600000e+000 -2.3530900e-001
  9.1650000e+000 -2.0640900e-001
  9.1700000e+000 -2.4123000e-001
  9.1750000e+000 -1.8181100e-001
  9.1800000e+000 -2.0082400e-001
  9.1850000e+000 -2.8392500e-001
  9.1900000e+000 -2.1440500e-001
  9.1950000e+000 -2.0680600e-001
  9.2000000e+000 -2.6659000e-001
  9.2050000e+000 -2.1358100e-001
  9.2100000e+000 -2.0656100e-001
  9.2150000e+000 -2.4641800e-001
  9.2200000e+000 -2.5703800e-001
  9.2250000e+000 -1.8544300e-001
  9.2300000e+000 -2.0567600e-001
  9.2350000e+000 -2.4577700e-001
  9.2400000e+000 -1.7787400e-001
  9.2450000e+000 -2.0293000e-001
  9.2500000e+000 -2.8517600e-001
  9.2550000e+000 -2.1840200e-001
  9.2600000e+000 -1.6524000e-001
  9.2650000e+000 -2.3488200e-001
  9.2700000e+000 -2.2185100e-001
  9.2750000e+000 -1.4488400e-001
  9.2800000e+000 -2.0238000e-001
  9.2850000e+000 -2.3500400e-001
  9.2900000e+000 -1.5428400e-001
  9.2950000e+000 -1.4729500e-001
  9.3000000e+000 -2.8841100e-001
  9.3050000e+000 -2.2285800e-001
  9.3100000e+000 -1.8996000e-001
  9.3150000e+000 -2.3524800e-001
  9.3200000e+000 -2.1754800e-001
  9.3250000e+000 -2.2764900e-001
  9.3300000e+000 -2.4773000e-001
  9.3350000e+000 -1.5843400e-001
  9.3400000e+000 -1.6646100e-001
  9.3450000e+000 -2.0686700e-001
  9.3500000e+000 -3.0135100e-001
  9.3550000e+000 -1.8312400e-001
  9.3600000e+000 -1.8840300e-001
  9.3650000e+000 -2.4550200e-001
  9.3700000e+000 -2.4348800e-001
  9.3750000e+000 -1.7604300e-001
  9.3800000e+000 -2.4403800e-001
  9.3850000e+000 -2.7904200e-001
  9.3900000e+000 -1.5727500e-001
  9.3950000e+000 -2.2966400e-001
  9.4000000e+000 -2.4171800e-001
  9.4050000e+000 -2.2432300e-001
  9.4100000e+000 -1.8883000e-001
  9.4150000e+000 -2.7516600e-001
  9.4200000e+000 -2.6247100e-001
  9.4250000e+000 -1.7595200e-001
  9.4300000e+000 -2.0027500e-001
  9.4350000e+000 -2.5166700e-001
  9.4400000e+000 -1.5596300e-001
  9.4450000e+000 -2.0906400e-001
  9.4500000e+000 -3.0806400e-001
  9.4550000e+000 -2.4065000e-001
  9.4600000e+000 -2.4806600e-001
  9.4650000e+000 -2.7699700e-001
